5.743674e-001 0.000000e+000 8.961844e-007
5.761775e-001 0.000000e+000 8.958579e-007
5.779874e-001 0.000000e+000 8.979187e-007
5.797971e-001 0.000000e+000 9.023073e-007
5.816066e-001 0.000000e+000 1.089183e-006
5.834160e-001 0.000000e+000 0.000000e+000
5.852251e-001 0.000000e+000 1.164595e-006
5.870341e-001 0.000000e+000 7.740699e-007
5.888429e-001 0.000000e+000 8.888251e-007
5.906516e-001 0.000000e+000 8.458223e-007
5.924600e-001 0.000000e+000 9.632219e-007
5.942683e-001 0.000000e+000 7.488003e-007
5.960763e-001 0.000000e+000 8.431403e-007
5.978842e-001 0.000000e+000 8.164295e-007
5.996919e-001 0.000000e+000 9.134040e-007
6.014994e-001 0.000000e+000 7.918581e-007
6.033068e-001 0.000000e+000 8.237892e-007
6.051139e-001 0.000000e+000 7.922256e-007
6.069209e-001 0.000000e+000 7.336169e-007
6.087277e-001 0.000000e+000 7.974372e-007
6.105343e-001 0.000000e+000 7.878366e-007
6.123407e-001 0.000000e+000 7.806822e-007
6.141469e-001 0.000000e+000 7.661123e-007
6.159529e-001 0.000000e+000 7.539418e-007
6.177587e-001 5.647340e-006 6.724294e-007
6.195644e-001 6.427070e-006 7.471656e-007
6.213698e-001 7.751734e-006 7.118109e-007
6.231751e-001 6.573460e-006 7.698928e-007
6.249801e-001 5.765974e-006 7.580736e-007
6.267850e-001 7.444520e-006 6.022117e-007
6.285897e-001 6.820185e-006 6.330151e-007
6.303942e-001 8.606836e-006 7.322145e-007
6.321985e-001 6.722316e-006 7.985232e-007
6.340026e-001 9.397179e-006 7.499766e-007
6.358065e-001 7.759643e-006 7.963581e-007
6.376102e-001 8.095458e-006 6.890566e-007
6.394137e-001 7.895176e-006 6.529845e-007
6.412170e-001 8.465592e-006 7.079284e-007
6.430201e-001 8.088287e-006 7.652276e-007
6.448231e-001 7.536402e-006 6.476595e-007
6.466258e-001 5.519548e-006 6.296868e-007
6.484283e-001 9.369592e-006 6.904116e-007
6.502306e-001 7.592285e-006 7.592285e-007
6.520328e-001 6.057512e-006 6.300194e-007
6.538347e-001 7.783967e-006 6.699186e-007
6.556364e-001 6.025154e-006 6.372759e-007
6.574379e-001 5.084630e-006 6.381998e-007
6.592393e-001 8.759223e-006 7.688329e-007
6.610404e-001 7.816448e-006 6.553031e-007
6.628413e-001 6.592047e-006 6.902500e-007
6.646420e-001 8.918713e-006 6.391938e-007
6.664425e-001 6.557432e-006 6.674155e-007
6.682428e-001 6.085292e-006 6.098830e-007
6.700429e-001 4.708045e-006 6.161742e-007
6.718428e-001 7.015397e-006 5.769621e-007
6.736425e-001 7.110046e-006 6.258272e-007
6.754420e-001 7.316774e-006 6.216647e-007
6.772413e-001 6.006724e-006 5.528913e-007
6.790403e-001 4.927394e-006 5.341403e-007
6.808392e-001 5.808338e-006 6.168768e-007
6.826378e-001 5.347820e-006 6.867953e-007
6.844363e-001 6.112069e-006 6.782483e-007
6.862345e-001 5.043478e-006 6.020461e-007
6.880325e-001 6.025755e-006 6.180733e-007
6.898304e-001 7.389057e-006 5.835704e-007
6.916280e-001 5.720314e-006 6.247142e-007
6.934253e-001 6.583746e-006 6.629309e-007
6.952225e-001 5.910496e-006 6.358681e-007
6.970195e-001 9.444034e-006 6.969558e-007
6.988162e-001 8.113570e-006 5.108190e-007
7.006128e-001 6.735419e-006 6.849226e-007
7.024091e-001 5.851765e-006 6.082028e-007
7.042052e-001 7.891128e-006 6.707282e-007
7.060011e-001 5.499363e-006 6.625226e-007
7.077968e-001 5.916077e-006 6.453902e-007
7.095922e-001 8.047559e-006 5.145965e-007
7.113875e-001 6.154679e-006 5.911361e-007
7.131825e-001 9.770036e-006 6.087189e-007
7.149773e-001 6.763775e-006 5.882546e-007
7.167719e-001 7.012979e-006 6.463377e-007
7.185663e-001 6.306982e-006 6.019625e-007
7.203605e-001 6.027376e-006 5.443476e-007
7.221544e-001 6.645774e-006 5.801866e-007
7.239481e-001 7.366435e-006 6.529647e-007
7.257416e-001 6.508908e-006 5.750122e-007
7.275349e-001 7.383554e-006 5.615588e-007
7.293279e-001 6.373364e-006 6.114616e-007
7.311208e-001 5.420103e-006 5.685226e-007
7.329134e-001 5.615210e-006 6.431140e-007
7.347057e-001 8.299137e-006 6.224353e-007
7.364979e-001 4.657243e-006 5.785506e-007
7.382898e-001 5.730406e-006 6.671456e-007
7.400816e-001 7.983123e-006 6.986345e-007
7.418730e-001 7.245054e-006 6.251055e-007
7.436643e-001 6.766754e-006 7.195146e-007
7.454553e-001 6.341833e-006 6.707448e-007
7.472461e-001 6.888364e-006 6.574101e-007
7.490367e-001 6.974205e-006 6.001800e-007
7.508271e-001 5.282042e-006 7.110441e-007
7.526172e-001 6.131276e-006 6.684057e-007
7.544071e-001 6.016058e-006 5.917323e-007
7.561968e-001 6.859714e-006 7.097407e-007
7.579862e-001 6.240126e-006 5.156635e-007
7.597754e-001 7.129633e-006 6.230734e-007
7.615644e-001 6.662544e-006 6.758093e-007
7.633531e-001 4.748148e-006 6.361479e-007
7.651416e-001 5.684864e-006 5.416968e-007
7.669299e-001 1.029918e-005 6.712249e-007
7.687180e-001 9.084542e-006 6.529426e-007
7.705058e-001 5.894147e-006 6.419905e-007
7.722934e-001 6.671634e-006 5.950897e-007
7.740807e-001 7.544262e-006 6.391164e-007
7.758678e-001 6.641841e-006 5.903858e-007
7.776547e-001 4.614390e-006 6.150866e-007
7.794413e-001 6.416406e-006 6.038685e-007
7.812277e-001 9.920947e-006 6.700944e-007
7.830139e-001 5.802872e-006 6.998897e-007
7.847998e-001 7.736320e-006 6.287754e-007
7.865855e-001 6.748321e-006 6.367151e-007
7.883710e-001 5.716220e-006 6.297530e-007
7.901562e-001 7.250476e-006 6.394318e-007
7.919412e-001 6.221794e-006 6.648179e-007
7.937259e-001 5.341975e-006 6.311653e-007
7.955104e-001 6.819028e-006 6.279603e-007
7.972947e-001 5.702150e-006 6.192271e-007
7.990787e-001 7.602364e-006 5.855948e-007
8.008625e-001 4.914178e-006 5.784587e-007
8.026460e-001 3.665801e-006 4.284702e-007
8.044293e-001 4.323009e-006 4.844639e-007
8.062124e-001 9.717790e-006 5.688463e-007
8.079952e-001 8.136044e-006 6.537346e-007
8.097777e-001 8.260308e-006 5.105651e-007
8.115600e-001 6.876804e-006 6.509543e-007
8.133421e-001 6.439204e-006 6.055718e-007
8.151239e-001 9.474209e-006 6.413755e-007
8.169055e-001 7.722497e-006 7.067099e-007
8.186868e-001 5.557828e-006 6.521920e-007
8.204679e-001 6.804521e-006 6.817915e-007
8.222488e-001 7.022801e-006 7.865321e-007
8.240294e-001 6.915292e-006 6.612601e-007
8.258097e-001 7.039809e-006 7.099883e-007
8.275898e-001 6.840284e-006 6.745315e-007
8.293696e-001 7.287302e-006 7.307125e-007
8.311492e-001 6.259620e-006 7.878488e-007
8.329286e-001 8.083943e-006 7.085966e-007
8.347077e-001 9.442378e-006 6.705344e-007
8.364865e-001 7.547512e-006 7.516259e-007
8.382651e-001 8.262400e-006 7.057105e-007
8.400435e-001 7.015493e-006 8.110864e-007
8.418215e-001 5.819147e-006 7.728555e-007
8.435994e-001 7.440587e-006 7.273274e-007
8.453770e-001 7.832952e-006 7.535625e-007
8.471543e-001 6.913355e-006 8.233159e-007
8.489314e-001 6.313142e-006 7.200914e-007
8.507082e-001 6.795425e-006 8.062916e-007
8.524847e-001 6.736821e-006 8.414287e-007
8.542610e-001 5.647555e-006 7.929797e-007
8.560371e-001 7.291312e-006 7.254307e-007
8.578129e-001 5.803521e-006 5.449308e-007
8.595884e-001 5.881041e-006 6.786163e-007
8.613637e-001 6.358438e-006 6.489395e-007
8.631387e-001 8.076475e-006 6.384628e-007
8.649135e-001 8.104749e-006 5.974811e-007
8.666880e-001 6.409091e-006 6.219579e-007
8.684622e-001 7.896295e-006 6.602286e-007
8.702362e-001 7.132293e-006 6.116357e-007
8.720099e-001 7.337978e-006 4.990624e-007
8.737834e-001 5.920269e-006 6.201870e-007
8.755566e-001 5.864920e-006 5.706657e-007
8.773295e-001 6.945538e-006 5.860640e-007
8.791022e-001 7.062805e-006 6.119209e-007
8.808746e-001 7.832313e-006 5.623099e-007
8.826467e-001 6.340559e-006 5.389334e-007
8.844186e-001 8.798929e-006 5.815272e-007
8.861902e-001 7.570643e-006 5.804048e-007
8.879616e-001 7.383353e-006 5.695504e-007
8.897327e-001 7.067503e-006 5.908824e-007
8.915035e-001 7.096964e-006 5.722362e-007
8.932741e-001 6.396513e-006 5.310100e-007
8.950443e-001 6.384302e-006 5.282615e-007
8.968144e-001 6.799802e-006 5.426404e-007
8.985841e-001 7.555205e-006 5.348387e-007
9.003536e-001 7.327858e-006 4.608309e-007
9.021228e-001 8.462119e-006 6.118025e-007
9.038918e-001 8.446142e-006 5.039818e-007
9.056604e-001 7.625333e-006 5.257105e-007
9.074289e-001 1.078225e-005 4.689448e-007
9.091970e-001 6.330601e-006 5.371693e-007
9.109649e-001 8.340753e-006 5.244522e-007
9.127325e-001 8.199036e-006 5.132410e-007
9.144998e-001 6.001421e-006 5.140007e-007
9.162668e-001 8.545547e-006 4.903092e-007
9.180336e-001 6.982639e-006 4.365323e-007
9.198001e-001 5.926340e-006 4.416795e-007
9.215663e-001 7.456724e-006 4.964085e-007
9.233323e-001 8.440918e-006 4.554957e-007
9.250980e-001 8.549902e-006 5.629928e-007
9.268634e-001 7.167076e-006 4.705338e-007
9.286285e-001 8.105050e-006 4.434540e-007
9.303934e-001 6.232783e-006 3.894037e-007
9.321580e-001 9.352722e-006 4.643164e-007
9.339223e-001 9.541330e-006 4.391101e-007
9.356863e-001 7.060897e-006 4.344506e-007
9.374500e-001 7.048099e-006 4.336632e-007
9.392135e-001 6.585417e-006 4.752524e-007
9.409767e-001 7.553437e-006 4.435207e-007
9.427396e-001 5.502040e-006 5.647297e-007
9.445022e-001 1.057748e-005 4.796409e-007
9.462646e-001 6.863031e-006 5.418003e-007
9.480267e-001 7.742562e-006 4.328164e-007
9.497884e-001 9.630569e-006 4.432672e-007
9.515500e-001 7.230251e-006 4.569886e-007
9.533112e-001 6.491621e-006 4.525979e-007
9.550721e-001 5.956863e-006 4.571416e-007
9.568328e-001 1.068729e-005 4.492013e-007
9.585932e-001 1.082883e-005 4.429939e-007
9.603533e-001 8.407570e-006 4.529562e-007
9.621131e-001 7.313702e-006 4.878421e-007
9.638726e-001 8.298241e-006 4.370321e-007
9.656318e-001 1.139008e-005 4.434776e-007
9.673908e-001 9.859440e-006 4.373139e-007
9.691495e-001 1.000098e-005 4.712501e-007
9.709078e-001 1.418299e-005 4.754074e-007
9.726659e-001 1.487021e-005 4.277816e-007
9.744238e-001 1.148863e-005 4.252106e-007
9.761813e-001 1.332108e-005 5.000755e-007
9.779385e-001 1.412427e-005 4.485835e-007
9.796955e-001 1.217542e-005 4.373540e-007
9.814521e-001 1.544794e-005 4.435876e-007
9.832085e-001 2.191876e-005 4.581295e-007
9.849646e-001 1.727052e-005 3.450885e-007
9.867203e-001 1.692893e-005 4.598829e-007
9.884758e-001 1.565396e-005 4.894706e-007
9.902310e-001 1.547180e-005 4.516735e-007
9.919859e-001 1.591120e-005 4.800259e-007
9.937406e-001 1.565175e-005 4.118328e-007
9.954949e-001 1.562526e-005 3.867638e-007
9.972489e-001 1.359109e-005 4.368341e-007
9.990027e-001 1.661330e-005 4.689316e-007
1.000756e+000 1.312205e-005 4.437855e-007
1.002509e+000 1.413726e-005 4.413716e-007
1.004262e+000 1.012495e-005 5.131159e-007
1.006015e+000 1.167782e-005 5.319131e-007
1.007767e+000 1.184945e-005 3.626250e-007
1.009519e+000 1.049410e-005 5.004684e-007
1.011271e+000 1.154336e-005 4.908444e-007
1.013022e+000 8.709718e-006 4.915037e-007
1.014773e+000 8.619354e-006 4.650444e-007
1.016524e+000 7.619502e-006 5.334124e-007
1.018274e+000 7.379862e-006 4.397243e-007
1.020025e+000 7.518847e-006 4.658219e-007
1.021774e+000 9.882922e-006 4.588967e-007
1.023524e+000 6.515047e-006 4.565939e-007
1.025273e+000 7.256338e-006 4.987886e-007
1.027022e+000 7.995212e-006 4.441344e-007
1.028771e+000 7.232680e-006 3.766193e-007
1.030519e+000 4.190375e-006 4.411053e-007
1.032267e+000 6.312711e-006 5.121629e-007
1.034015e+000 6.227897e-006 5.518830e-007
1.035763e+000 7.334800e-006 5.022937e-007
1.037510e+000 8.140754e-006 5.425132e-007
1.039257e+000 7.608066e-006 5.352443e-007
1.041003e+000 6.706566e-006 5.458225e-007
1.042750e+000 8.989395e-006 4.990682e-007
1.044496e+000 8.974999e-006 5.490656e-007
1.046241e+000 7.043147e-006 5.122855e-007
1.047987e+000 7.252809e-006 5.101415e-007
1.049732e+000 6.873685e-006 5.026536e-007
1.051476e+000 7.486650e-006 5.292843e-007
1.053221e+000 8.024391e-006 4.970235e-007
1.054965e+000 7.975106e-006 5.002658e-007
1.056709e+000 5.917092e-006 5.139559e-007
1.058452e+000 6.819453e-006 5.578480e-007
1.060195e+000 6.590259e-006 5.545847e-007
1.061938e+000 6.761672e-006 5.770872e-007
1.063681e+000 6.968847e-006 5.297238e-007
1.065423e+000 6.341875e-006 5.375154e-007
1.067165e+000 5.101758e-006 5.142526e-007
1.068907e+000 5.418942e-006 5.044761e-007
1.070648e+000 5.518721e-006 4.919302e-007
1.072389e+000 7.562953e-006 5.438004e-007
1.074130e+000 6.832066e-006 5.524010e-007
1.075870e+000 5.636710e-006 5.227500e-007
1.077610e+000 7.276977e-006 5.857477e-007
1.079350e+000 5.225622e-006 5.978432e-007
1.081090e+000 4.931689e-006 6.920417e-007
1.082829e+000 6.779582e-006 5.917192e-007
1.084568e+000 6.234783e-006 6.353263e-007
1.086306e+000 6.011810e-006 5.801754e-007
1.088044e+000 5.185706e-006 5.847088e-007
1.089782e+000 4.787695e-006 6.324210e-007
1.091520e+000 6.161422e-006 5.020301e-007
1.093257e+000 6.010642e-006 5.820450e-007
1.094994e+000 5.930928e-006 6.175528e-007
1.096731e+000 5.851459e-006 6.246272e-007
1.098467e+000 5.666644e-006 5.826065e-007
1.100203e+000 8.399300e-006 5.859595e-007
1.101938e+000 9.685022e-006 6.620893e-007
1.103674e+000 5.606078e-006 6.776024e-007
1.105409e+000 4.548114e-006 6.638030e-007
1.107144e+000 5.170109e-006 6.422385e-007
1.108878e+000 6.418108e-006 5.763290e-007
1.110612e+000 5.642306e-006 6.478578e-007
1.112346e+000 4.451488e-006 5.607663e-007
1.114079e+000 5.972808e-006 6.269875e-007
1.115812e+000 7.697666e-006 3.845552e-007
1.117545e+000 6.093628e-006 0.000000e+000
1.119278e+000 4.701762e-006 0.000000e+000
1.121010e+000 6.248271e-006 0.000000e+000
1.122742e+000 6.135671e-006 4.494346e-007
1.124473e+000 5.266176e-006 5.549970e-007
1.126204e+000 5.155352e-006 5.992442e-007
1.127935e+000 5.113492e-006 5.783497e-007
1.129666e+000 6.373966e-006 6.819372e-007
1.131396e+000 5.474991e-006 5.633107e-007
1.133126e+000 5.877053e-006 6.291164e-007
1.134855e+000 5.152014e-006 6.309764e-007
1.136584e+000 5.485245e-006 6.319014e-007
1.138313e+000 5.783494e-006 6.123699e-007
1.140042e+000 7.609598e-006 5.844664e-007
1.141770e+000 6.004273e-006 5.943693e-007
1.143498e+000 5.927886e-006 6.255169e-007
1.145226e+000 6.088497e-006 5.945889e-007
1.146953e+000 5.674450e-006 5.232631e-007
1.148680e+000 7.723746e-006 6.200845e-007
1.150406e+000 8.824152e-006 5.784725e-007
1.152133e+000 6.289173e-006 5.328302e-007
1.153858e+000 6.918319e-006 6.538121e-007
1.155584e+000 5.902398e-006 6.192885e-007
1.157309e+000 6.262404e-006 6.327521e-007
1.159034e+000 6.989248e-006 5.433581e-007
1.160759e+000 6.678824e-006 6.084698e-007
1.162483e+000 7.403037e-006 5.993192e-007
1.164207e+000 6.393611e-006 5.709770e-007
1.165931e+000 6.816916e-006 5.278790e-007
1.167654e+000 7.969582e-006 4.969908e-007
1.169377e+000 6.433056e-006 6.105419e-007
1.171099e+000 9.437411e-006 4.944934e-007
1.172822e+000 7.506325e-006 4.757586e-007
1.174544e+000 5.910838e-006 4.975182e-007
1.176265e+000 5.935594e-006 4.935324e-007
1.177986e+000 6.585949e-006 4.771974e-007
1.179707e+000 6.379519e-006 4.765361e-007
1.181428e+000 6.206501e-006 4.690294e-007
1.183148e+000 6.427484e-006 4.250496e-007
1.184868e+000 6.353128e-006 4.466243e-007
1.186588e+000 7.096557e-006 4.624906e-007
1.188307e+000 8.883005e-006 4.143849e-007
1.190026e+000 5.805173e-006 4.201934e-007
1.191744e+000 6.871994e-006 4.465594e-007
1.193463e+000 7.025227e-006 4.411797e-007
1.195180e+000 6.853246e-006 4.095552e-007
1.196898e+000 6.649302e-006 4.587089e-007
1.198615e+000 7.352879e-006 4.804441e-007
1.200332e+000 6.372475e-006 3.841064e-007
1.202049e+000 6.783794e-006 3.876454e-007
1.203765e+000 7.387565e-006 4.328148e-007
1.205481e+000 8.730690e-006 3.919315e-007
1.207196e+000 7.206789e-006 3.927235e-007
1.208911e+000 6.683018e-006 3.828719e-007
1.210626e+000 7.764996e-006 4.866198e-007
1.212340e+000 7.594370e-006 3.681547e-007
1.214055e+000 6.400177e-006 4.233319e-007
1.215768e+000 6.871001e-006 3.887876e-007
1.217482e+000 6.063952e-006 3.776297e-007
1.219195e+000 8.255123e-006 4.311708e-007
1.220908e+000 7.480217e-006 4.858747e-007
1.222620e+000 6.770949e-006 4.831433e-007
1.224332e+000 7.968347e-006 4.306292e-007
1.226044e+000 7.355431e-006 4.860199e-007
1.227755e+000 7.535701e-006 4.812300e-007
1.229466e+000 8.000088e-006 4.560431e-007
1.231177e+000 6.600078e-006 4.587161e-007
1.232887e+000 8.136770e-006 4.001707e-007
1.234597e+000 9.071003e-006 4.202162e-007
1.236307e+000 7.832378e-006 4.536553e-007
1.238016e+000 6.785479e-006 4.743449e-007
1.239725e+000 8.345298e-006 4.090578e-007
1.241433e+000 9.180413e-006 3.271206e-007
1.243141e+000 7.322272e-006 0.000000e+000
1.244849e+000 8.344063e-006 3.045987e-007
1.246557e+000 7.209673e-006 3.885702e-007
1.248264e+000 8.634191e-006 5.054983e-007
1.249971e+000 6.070377e-006 2.886890e-007
1.251677e+000 3.482084e-006 5.230154e-007
1.253383e+000 4.098607e-006 5.305835e-007
1.255089e+000 4.279406e-006 4.932472e-007
1.256794e+000 4.459744e-006 5.364238e-007
1.258499e+000 4.918000e-006 4.939255e-007
1.260204e+000 5.931131e-006 5.150610e-007
1.261908e+000 3.671378e-006 4.916986e-007
1.263612e+000 4.498645e-006 5.390010e-007
1.265316e+000 3.446630e-006 5.204267e-007
1.267019e+000 3.811070e-006 4.907896e-007
1.268722e+000 4.113198e-006 5.387039e-007
1.270425e+000 3.832086e-006 5.661121e-007
1.272127e+000 5.051969e-006 5.719913e-007
1.273829e+000 3.791846e-006 5.858171e-007
1.275530e+000 4.245190e-006 5.631470e-007
1.277231e+000 6.039510e-006 5.706509e-007
1.278932e+000 3.899434e-006 5.398292e-007
1.280633e+000 2.312390e-006 5.938955e-007
1.282333e+000 4.011238e-006 5.789723e-007
1.284032e+000 4.825690e-006 5.900764e-007
1.285732e+000 4.092181e-006 6.212204e-007
1.287431e+000 6.357699e-006 6.379287e-007
1.289129e+000 4.233204e-006 6.590039e-007
1.290827e+000 3.019970e-006 6.533194e-007
1.292525e+000 3.770292e-006 6.137127e-007
1.294223e+000 4.518762e-006 0.000000e+000
1.295920e+000 5.175124e-006 6.347055e-007
1.297617e+000 4.297277e-006 6.699393e-007
1.299313e+000 4.171939e-006 6.609887e-007
1.301009e+000 4.586500e-006 6.574496e-007
1.302705e+000 4.461120e-006 7.123047e-007
1.304400e+000 5.711623e-006 7.361434e-007
1.306095e+000 4.032082e-006 7.935931e-007
1.307790e+000 3.639365e-006 6.589853e-007
1.309484e+000 4.469184e-006 6.748320e-007
1.311178e+000 5.386264e-006 7.487053e-007
1.312872e+000 5.023063e-006 7.460230e-007
1.314565e+000 4.096706e-006 7.222982e-007
1.316258e+000 5.396370e-006 7.388838e-007
1.317950e+000 3.612981e-006 7.296258e-007
1.319642e+000 4.673468e-006 6.140742e-007
1.321334e+000 8.242589e-006 6.788540e-007
1.323025e+000 5.075349e-006 6.932774e-007
1.324716e+000 5.246098e-006 6.524008e-007
1.326407e+000 2.914281e-006 6.415685e-007
1.328097e+000 6.027409e-006 6.082732e-007
1.329787e+000 4.698706e-006 6.124955e-007
1.331476e+000 5.103756e-006 7.238512e-007
1.333165e+000 5.039091e-006 6.235523e-007
1.334854e+000 9.334660e-006 6.679234e-007
1.336542e+000 5.290189e-006 6.410106e-007
1.338230e+000 5.137963e-006 6.349052e-007
1.339918e+000 4.869466e-006 7.664854e-007
1.341605e+000 5.999560e-006 7.743939e-007
1.343292e+000 5.410699e-006 7.237452e-007
1.344979e+000 4.881336e-006 7.903970e-007
1.346665e+000 8.822524e-006 7.963734e-007
1.348351e+000 7.217874e-006 8.038464e-007
1.350036e+000 5.964426e-006 8.734179e-007
1.351721e+000 7.779398e-006 8.391696e-007
1.353406e+000 5.372789e-006 9.093345e-007
1.355090e+000 5.251123e-006 9.564883e-007
1.356774e+000 8.472721e-006 8.943113e-007
1.358458e+000 5.296500e-006 9.278524e-007
1.360141e+000 5.261610e-006 9.592131e-007
1.361823e+000 9.276139e-006 1.046559e-006
1.363506e+000 6.511613e-006 1.091935e-006
1.365188e+000 6.561408e-006 8.992484e-007
1.366870e+000 6.639710e-006 1.001680e-006
1.368551e+000 7.089461e-006 9.302711e-007
1.370232e+000 5.882067e-006 9.606960e-007
1.371912e+000 8.128486e-006 9.162303e-007
1.373592e+000 7.008139e-006 8.407690e-007
1.375272e+000 7.313147e-006 9.101417e-007
1.376952e+000 6.480529e-006 8.765281e-007
1.378631e+000 1.348573e-005 7.591608e-007
1.380309e+000 1.267635e-005 8.272781e-007
1.381988e+000 6.628410e-006 8.619836e-007
1.383665e+000 6.366248e-006 7.257950e-007
1.385343e+000 5.567697e-006 7.739983e-007
1.387020e+000 6.577705e-006 7.756967e-007
1.388697e+000 7.952020e-006 7.460662e-007
1.390373e+000 6.055883e-006 7.269025e-007
1.392049e+000 5.992804e-006 7.288056e-007
1.393725e+000 6.801083e-006 7.109723e-007
1.395400e+000 4.238895e-006 7.925101e-007
1.397075e+000 5.075373e-006 7.518892e-007
1.398749e+000 3.613214e-006 7.857625e-007
1.400423e+000 5.092026e-006 7.481217e-007
1.402097e+000 5.421719e-006 7.394083e-007
1.403770e+000 3.656987e-006 8.271787e-007
1.405443e+000 8.226056e-006 7.010164e-007
1.407116e+000 3.899564e-006 8.106431e-007
1.408788e+000 4.729944e-006 8.665487e-007
1.410460e+000 4.252246e-006 8.333104e-007
1.412131e+000 3.470224e-006 8.787825e-007
1.413802e+000 3.632789e-006 9.049898e-007
1.415473e+000 6.149559e-006 9.282840e-007
1.417143e+000 3.541798e-006 8.979002e-007
1.418813e+000 4.311834e-006 9.233568e-007
1.420482e+000 3.865359e-006 9.516342e-007
1.422151e+000 4.164509e-006 8.760572e-007
1.423820e+000 3.168185e-006 7.860043e-007
1.425488e+000 3.935277e-006 8.009050e-007
1.427156e+000 3.903507e-006 8.260579e-007
1.428824e+000 3.048019e-006 5.450581e-007
1.430491e+000 2.358967e-006 0.000000e+000
1.432158e+000 4.055222e-006 0.000000e+000
1.433824e+000 6.103628e-006 0.000000e+000
1.435490e+000 4.073807e-006 4.591332e-007
1.437156e+000 3.741678e-006 7.116735e-007
1.438821e+000 7.366176e-006 7.008907e-007
1.440486e+000 4.251440e-006 6.118243e-007
1.442150e+000 3.593514e-006 6.249578e-007
1.443814e+000 6.009969e-006 6.141367e-007
1.445478e+000 6.927164e-006 6.709346e-007
1.447141e+000 4.260406e-006 5.358998e-007
1.448804e+000 4.852227e-006 5.535490e-007
1.450466e+000 4.738748e-006 5.569237e-007
1.452128e+000 5.815703e-006 5.602636e-007
1.453790e+000 4.728688e-006 5.858030e-007
1.455451e+000 5.020595e-006 5.968933e-007
1.457112e+000 4.799573e-006 5.200607e-007
1.458773e+000 4.713697e-006 5.565927e-007
1.460433e+000 3.928423e-006 5.026643e-007
1.462092e+000 4.031800e-006 5.042885e-007
1.463752e+000 7.249611e-006 4.773033e-007
1.465411e+000 3.191844e-006 3.951160e-007
1.467069e+000 4.849733e-006 4.202492e-007
1.468727e+000 5.701172e-006 4.282570e-007
1.470385e+000 5.668476e-006 4.561177e-007
1.472042e+000 5.582431e-006 4.618625e-007
1.473699e+000 5.603298e-006 4.512398e-007
1.475356e+000 6.103907e-006 4.639741e-007
1.477012e+000 5.724791e-006 4.627268e-007
1.478668e+000 6.942423e-006 4.809993e-007
1.480323e+000 5.686361e-006 4.446309e-007
1.481978e+000 7.193507e-006 3.919220e-007
1.483633e+000 4.879111e-006 4.437127e-007
1.485287e+000 5.297915e-006 4.196738e-007
1.486940e+000 4.657367e-006 4.583407e-007
1.488594e+000 5.154849e-006 4.375791e-007
1.490247e+000 5.308008e-006 4.395167e-007
1.491899e+000 7.887902e-006 3.895100e-007
1.493551e+000 6.114118e-006 4.409861e-007
1.495203e+000 4.817849e-006 4.421062e-007
1.496855e+000 7.206253e-006 4.216242e-007
1.498506e+000 4.834308e-006 4.203746e-007
1.500156e+000 6.351701e-006 4.116634e-007
1.501806e+000 6.187933e-006 4.129138e-007
1.503456e+000 5.972113e-006 4.648881e-007
1.505105e+000 5.154892e-006 4.243569e-007
1.506754e+000 5.933898e-006 4.182483e-007
1.508403e+000 6.476308e-006 4.161910e-007
1.510051e+000 5.530620e-006 4.341881e-007
1.511699e+000 4.352285e-006 4.145349e-007
1.513346e+000 5.649683e-006 4.173793e-007
1.514993e+000 5.800072e-006 4.020939e-007
1.516640e+000 4.702967e-006 4.253641e-007
1.518286e+000 5.476982e-006 4.358965e-007
1.519932e+000 6.949600e-006 3.819925e-007
1.521577e+000 6.579994e-006 4.288122e-007
1.523222e+000 4.813624e-006 4.204954e-007
1.524866e+000 5.119087e-006 4.120446e-007
1.526510e+000 5.114006e-006 4.124451e-007
1.528154e+000 5.908823e-006 3.861797e-007
1.529797e+000 5.645204e-006 4.259090e-007
1.531440e+000 3.837006e-006 4.096061e-007
1.533083e+000 5.325346e-006 4.132257e-007
1.534725e+000 6.116830e-006 4.361598e-007
1.536367e+000 4.210812e-006 4.250082e-007
1.538008e+000 4.950540e-006 3.965466e-007
1.539649e+000 5.048186e-006 3.969856e-007
1.541289e+000 5.068843e-006 4.713500e-007
1.542929e+000 4.680259e-006 4.233446e-007
1.544569e+000 4.420187e-006 3.949967e-007
1.546208e+000 5.615567e-006 3.742744e-007
1.547847e+000 5.151092e-006 3.966940e-007
1.549485e+000 6.700101e-006 4.162759e-007
1.551123e+000 5.370149e-006 4.111726e-007
1.552761e+000 5.517503e-006 4.660714e-007
1.554398e+000 4.546900e-006 4.288296e-007
1.556035e+000 5.785986e-006 4.336446e-007
1.557671e+000 5.755051e-006 3.567433e-007
1.559307e+000 4.381782e-006 3.874473e-007
1.560943e+000 6.680218e-006 3.968755e-007
1.562578e+000 5.612060e-006 3.680758e-007
1.564212e+000 4.646976e-006 3.754471e-007
1.565847e+000 5.904081e-006 3.949294e-007
1.567481e+000 5.394295e-006 3.921287e-007
1.569114e+000 5.489876e-006 3.893185e-007
1.570747e+000 5.358847e-006 3.619736e-007
1.572380e+000 4.373482e-006 4.389631e-007
1.574012e+000 6.252653e-006 3.783362e-007
1.575644e+000 4.967270e-006 3.812927e-007
1.577275e+000 5.839782e-006 3.334474e-007
1.578906e+000 7.587035e-006 3.469605e-007
1.580537e+000 8.230282e-006 3.457287e-007
1.582167e+000 5.198429e-006 3.990974e-007
1.583797e+000 6.142348e-006 3.557520e-007
1.585426e+000 7.358893e-006 3.447523e-007
1.587055e+000 7.027993e-006 3.435255e-007
1.588684e+000 4.905020e-006 3.265418e-007
1.590312e+000 5.696433e-006 3.318773e-007
1.591939e+000 5.417733e-006 3.809737e-007
1.593567e+000 5.164385e-006 3.615124e-007
1.595194e+000 6.424654e-006 3.737343e-007
1.596820e+000 6.096498e-006 3.202606e-007
1.598446e+000 5.546120e-006 3.394847e-007
1.600072e+000 6.307800e-006 3.800089e-007
1.601697e+000 5.708826e-006 3.698783e-007
1.603321e+000 4.246792e-006 3.367356e-007
1.604946e+000 6.166956e-006 3.418074e-007
1.606570e+000 6.432358e-006 3.753822e-007
1.608193e+000 6.032470e-006 3.618728e-007
1.609816e+000 8.363885e-006 3.730723e-007
1.611439e+000 7.741771e-006 3.686557e-007
1.613061e+000 7.047139e-006 3.558284e-007
1.614683e+000 6.991616e-006 4.053349e-007
1.616305e+000 5.710721e-006 3.369504e-007
1.617926e+000 8.913317e-006 3.202108e-007
1.619546e+000 6.923535e-006 3.967522e-007
1.621166e+000 5.963969e-006 3.214908e-007
1.622786e+000 7.081874e-006 3.418836e-007
1.624405e+000 6.636274e-006 2.978164e-007
1.626024e+000 8.117185e-006 3.252155e-007
1.627643e+000 8.767385e-006 3.780734e-007
1.629261e+000 6.399267e-006 3.657874e-007
1.630878e+000 6.903993e-006 3.766063e-007
1.632495e+000 7.844994e-006 3.502852e-007
1.634112e+000 6.357699e-006 3.508099e-007
1.635729e+000 5.212503e-006 3.931749e-007
1.637345e+000 5.716493e-006 3.705319e-007
1.638960e+000 6.606792e-006 3.701996e-007
1.640575e+000 6.334906e-006 4.081890e-007
1.642190e+000 5.749463e-006 4.273882e-007
1.643804e+000 6.033959e-006 4.391130e-007
1.645418e+000 5.690978e-006 5.456446e-007
1.647031e+000 5.878653e-006 4.145089e-007
1.648644e+000 6.282640e-006 4.874091e-007
1.650257e+000 6.878313e-006 4.569509e-007
1.651869e+000 6.583870e-006 5.080243e-007
1.653480e+000 5.857818e-006 4.937603e-007
1.655092e+000 5.372914e-006 4.767168e-007
1.656703e+000 6.542459e-006 5.117534e-007
1.658313e+000 7.398673e-006 4.649069e-007
1.659923e+000 6.889780e-006 6.297664e-007
1.661533e+000 6.286178e-006 5.252965e-007
1.663142e+000 6.829920e-006 5.554542e-007
1.664750e+000 7.396571e-006 5.128493e-007
1.666359e+000 7.247064e-006 5.118456e-007
1.667966e+000 7.526548e-006 5.483359e-007
1.669574e+000 9.304784e-006 5.596186e-007
1.671181e+000 1.155546e-005 4.505035e-007
1.672787e+000 8.290834e-006 4.017499e-007
1.674394e+000 9.138101e-006 4.076676e-007
1.675999e+000 6.995845e-006 4.653166e-007
1.677605e+000 6.776536e-006 4.426438e-007
1.679209e+000 8.498850e-006 5.218959e-007
1.680814e+000 1.308023e-005 4.677122e-007
1.682418e+000 1.252539e-005 4.201061e-007
1.684021e+000 1.088534e-005 4.116971e-007
1.685625e+000 1.089957e-005 4.153824e-007
1.687227e+000 1.275238e-005 3.986364e-007
1.688830e+000 1.137544e-005 3.819434e-007
1.690431e+000 1.630730e-005 3.993422e-007
1.692033e+000 8.863772e-006 4.132915e-007
1.693634e+000 1.071201e-005 3.881391e-007
1.695234e+000 9.271126e-006 3.512848e-007
1.696834e+000 9.919861e-006 3.663196e-007
1.698434e+000 1.047377e-005 3.878564e-007
1.700033e+000 8.451499e-006 3.959219e-007
1.701632e+000 9.590513e-006 3.779012e-007
1.703231e+000 6.918018e-006 3.650773e-007
1.704828e+000 1.195618e-005 3.587389e-007
1.706426e+000 7.722953e-006 3.689142e-007
1.708023e+000 7.296814e-006 3.596478e-007
1.709620e+000 6.638468e-006 3.770280e-007
1.711216e+000 5.445947e-006 3.845376e-007
1.712812e+000 5.441372e-006 3.572306e-007
1.714407e+000 6.110601e-006 3.406806e-007
1.716002e+000 4.851886e-006 3.757638e-007
1.717596e+000 4.824632e-006 4.168714e-007
1.719191e+000 5.562234e-006 3.905685e-007
1.720784e+000 5.233402e-006 3.755377e-007
1.722377e+000 5.576103e-006 4.390005e-007
1.723970e+000 4.115024e-006 4.218660e-007
1.725562e+000 3.441738e-006 3.809571e-007
1.727154e+000 4.523632e-006 3.930341e-007
1.728746e+000 3.989491e-006 3.602187e-007
1.730337e+000 6.059933e-006 3.876192e-007
1.731927e+000 3.936854e-006 4.392421e-007
1.733517e+000 4.347672e-006 3.511340e-007
1.735107e+000 6.274798e-006 3.880249e-007
1.736696e+000 4.822798e-006 3.890637e-007
1.738285e+000 5.163040e-006 4.072661e-007
1.739873e+000 5.273446e-006 4.227719e-007
1.741461e+000 4.948398e-006 3.585865e-007
1.743049e+000 5.310599e-006 3.698076e-007
1.744636e+000 4.391389e-006 3.616352e-007
1.746223e+000 4.250689e-006 2.997165e-007
1.747809e+000 5.114940e-006 3.470552e-007
1.749395e+000 5.384572e-006 3.643420e-007
1.750980e+000 4.285921e-006 3.412011e-007
1.752565e+000 3.804087e-006 3.572741e-007
1.754149e+000 5.166638e-006 3.662959e-007
1.755733e+000 4.821328e-006 3.279914e-007
1.757317e+000 5.340080e-006 3.355121e-007
1.758900e+000 4.041564e-006 3.435953e-007
1.760482e+000 3.902187e-006 3.184291e-007
1.762065e+000 4.307088e-006 3.806753e-007
1.763646e+000 4.326280e-006 3.890382e-007
1.765228e+000 4.594400e-006 3.549771e-007
1.766809e+000 5.766669e-006 3.261493e-007
1.768389e+000 4.315894e-006 4.098598e-007
1.769969e+000 4.335025e-006 3.930173e-007
1.771549e+000 3.993164e-006 3.443672e-007
1.773128e+000 5.207267e-006 3.171980e-007
1.774707e+000 5.113028e-006 3.554283e-007
1.776285e+000 6.864471e-006 2.968806e-007
1.777863e+000 4.655142e-006 3.282105e-007
1.779440e+000 5.370521e-006 3.317774e-007
1.781017e+000 5.433632e-006 3.284594e-007
1.782594e+000 5.496646e-006 3.431939e-007
1.784170e+000 4.954288e-006 3.040870e-007
1.785745e+000 4.748787e-006 3.337515e-007
1.787320e+000 5.506050e-006 3.636696e-007
1.788895e+000 5.233348e-006 2.941622e-007
1.790469e+000 4.424744e-006 3.366944e-007
1.792043e+000 6.520269e-006 3.371709e-007
1.793617e+000 6.358983e-006 2.985172e-007
1.795189e+000 7.491050e-006 3.284228e-007
1.796762e+000 5.814401e-006 3.235979e-007
1.798334e+000 5.943432e-006 3.609973e-007
1.799906e+000 5.382740e-006 3.161286e-007
1.801477e+000 4.778471e-006 3.296567e-007
1.803047e+000 5.307761e-006 2.921033e-007
1.804618e+000 6.080334e-006 3.001943e-007
1.806188e+000 7.516929e-006 3.120135e-007
1.807757e+000 5.317608e-006 3.109841e-007
1.809326e+000 5.291366e-006 3.075732e-007
1.810894e+000 6.061578e-006 2.833069e-007
1.812462e+000 6.366392e-006 3.410275e-007
1.814030e+000 5.698844e-006 3.177988e-007
1.815597e+000 5.584113e-006 2.694181e-007
1.817164e+000 6.020928e-006 3.263795e-007
1.818730e+000 4.936468e-006 3.334925e-007
1.820296e+000 5.615346e-006 3.098624e-007
1.821861e+000 5.589057e-006 3.096260e-007
1.823426e+000 5.804672e-006 2.998681e-007
1.824991e+000 6.019961e-006 3.501547e-007
1.826555e+000 4.764010e-006 3.594019e-007
1.828118e+000 6.186319e-006 3.186577e-007
1.829681e+000 5.874741e-006 2.949125e-007
1.831244e+000 5.235076e-006 3.270978e-007
1.832806e+000 5.625095e-006 3.224235e-007
1.834368e+000 5.533366e-006 2.826357e-007
1.835929e+000 6.053703e-006 3.182067e-007
1.837490e+000 5.546871e-006 3.439063e-007
1.839050e+000 5.586345e-006 3.287764e-007
1.840610e+000 5.734788e-006 3.060517e-007
1.842170e+000 6.863514e-006 3.290057e-007
1.843729e+000 5.399610e-006 3.344773e-007
1.845288e+000 5.352061e-006 3.384493e-007
1.846846e+000 5.565466e-006 2.948971e-007
1.848404e+000 5.583040e-006 3.595944e-007
1.849961e+000 6.121577e-006 2.936566e-007
1.851518e+000 6.073642e-006 3.303963e-007
1.853074e+000 4.725253e-006 3.748039e-007
1.854630e+000 5.999654e-006 3.070750e-007
1.856185e+000 5.930281e-006 3.022331e-007
1.857740e+000 6.488207e-006 2.869193e-007
1.859295e+000 5.424458e-006 3.056311e-007
1.860849e+000 6.046725e-006 2.929349e-007
1.862403e+000 4.704340e-006 3.552441e-007
1.863956e+000 6.037828e-006 3.154493e-007
1.865509e+000 7.046141e-006 3.481159e-007
1.867061e+000 6.502673e-006 3.157215e-007
1.868613e+000 6.519426e-006 3.256000e-007
1.870164e+000 6.149148e-006 3.115721e-007
1.871715e+000 6.423959e-006 3.106023e-007
1.873266e+000 6.247519e-006 3.125954e-007
1.874816e+000 5.492096e-006 3.131035e-007
1.876365e+000 5.273721e-006 2.884173e-007
1.877914e+000 4.648642e-006 2.336899e-007
1.879463e+000 6.764540e-006 3.517492e-007
1.881011e+000 7.529724e-006 2.619884e-007
1.882559e+000 7.460148e-006 2.582846e-007
1.884106e+000 9.120863e-006 2.825707e-007
1.885653e+000 7.940311e-006 2.847768e-007
1.887199e+000 1.043014e-005 2.908961e-007
1.888745e+000 1.001767e-005 2.819602e-007
1.890291e+000 9.137215e-006 3.123027e-007
1.891836e+000 9.002955e-006 2.815553e-007
1.893380e+000 8.868892e-006 2.845508e-007
1.894925e+000 8.288710e-006 2.663006e-007
1.896468e+000 1.295513e-005 3.391422e-007
1.898011e+000 1.082360e-005 3.154989e-007
1.899554e+000 1.117642e-005 2.436570e-007
1.901096e+000 1.068103e-005 2.646945e-007
1.902638e+000 1.397712e-005 3.479811e-007
1.904180e+000 1.436928e-005 2.476997e-007
1.905721e+000 5.963570e-006 2.581370e-007
1.907261e+000 0.000000e+000 3.155746e-007
1.908801e+000 0.000000e+000 2.569054e-007
1.910341e+000 0.000000e+000 1.956973e-007
1.911880e+000 8.308552e-006 2.221727e-007
1.913418e+000 1.902878e-005 2.511119e-007
1.914956e+000 1.783614e-005 2.518173e-007
1.916494e+000 1.712919e-005 2.256635e-007
1.918031e+000 2.121772e-005 2.584021e-007
1.919568e+000 2.496432e-005 2.486379e-007
1.921105e+000 2.343492e-005 2.622779e-007
1.922640e+000 2.209654e-005 2.374110e-007
1.924176e+000 2.354900e-005 3.124419e-007
1.925711e+000 2.231720e-005 2.398422e-007
1.927245e+000 2.098241e-005 2.341223e-007
1.928779e+000 1.881246e-005 2.588401e-007
1.930313e+000 2.028411e-005 2.726521e-007
1.931846e+000 1.769973e-005 2.472562e-007
1.933379e+000 1.319774e-005 3.586687e-007
1.934911e+000 1.832216e-005 2.388460e-007
1.936443e+000 1.459756e-005 2.904579e-007
1.937974e+000 1.490009e-005 2.811374e-007
1.939505e+000 1.638923e-005 2.365259e-007
1.941035e+000 1.496284e-005 2.799783e-007
1.942565e+000 1.657468e-005 2.555497e-007
1.944095e+000 1.330053e-005 3.232933e-007
1.945624e+000 1.393523e-005 3.030968e-007
1.947152e+000 1.382193e-005 3.043082e-007
1.948680e+000 1.451763e-005 3.482750e-007
1.950208e+000 1.564762e-005 3.163584e-007
1.951735e+000 1.553341e-005 2.906957e-007
1.953262e+000 1.361871e-005 3.104569e-007
1.954788e+000 1.915252e-005 3.163901e-007
1.956314e+000 1.758935e-005 4.369925e-007
1.957839e+000 1.476835e-005 4.501660e-007
1.959364e+000 1.962965e-005 3.116732e-007
1.960888e+000 2.110154e-005 3.306778e-007
1.962412e+000 1.795409e-005 3.233054e-007
1.963936e+000 2.125848e-005 3.477563e-007
1.965459e+000 2.330272e-005 2.954567e-007
1.966981e+000 2.178533e-005 3.239620e-007
1.968503e+000 2.518331e-005 3.131271e-007
1.970025e+000 2.023586e-005 3.108875e-007
1.971546e+000 2.974836e-005 3.093197e-007
1.973067e+000 2.724598e-005 3.687275e-007
1.974587e+000 2.281967e-005 2.773574e-007
1.976106e+000 2.128826e-005 2.779288e-007
1.977626e+000 1.971795e-005 3.510824e-007
1.979145e+000 2.248766e-005 2.760465e-007
1.980663e+000 2.026430e-005 2.788782e-007
1.982181e+000 1.720608e-005 3.351553e-007
1.983698e+000 1.858333e-005 2.931000e-007
1.985215e+000 1.569355e-005 3.220287e-007
1.986732e+000 1.535688e-005 3.555860e-007
1.988248e+000 1.508180e-005 2.641654e-007
1.989763e+000 1.260741e-005 2.777740e-007
1.991278e+000 1.439026e-005 2.921346e-007
1.992793e+000 1.405536e-005 2.628586e-007
1.994307e+000 9.614794e-006 2.696716e-007
1.995821e+000 9.771005e-006 2.732961e-007
1.997334e+000 1.057664e-005 3.625811e-007
1.998847e+000 9.190183e-006 2.660665e-007
2.000359e+000 1.234695e-005 2.674343e-007
2.001871e+000 8.813502e-006 2.562827e-007
2.003383e+000 8.666031e-006 2.899034e-007
2.004893e+000 9.611422e-006 2.013315e-007
2.006404e+000 9.908503e-006 2.697876e-007
2.007914e+000 1.115500e-005 2.650297e-007
2.009423e+000 1.066309e-005 3.373270e-007
2.010932e+000 8.698520e-006 2.536861e-007
2.012441e+000 1.224267e-005 2.227755e-007
2.013949e+000 1.251696e-005 2.719212e-007
2.015457e+000 1.192475e-005 2.366285e-007
2.016964e+000 1.268203e-005 2.616926e-007
2.018471e+000 1.273423e-005 2.706502e-007
2.019977e+000 1.031354e-005 2.462272e-007
2.021483e+000 9.804644e-006 2.219177e-007
2.022988e+000 1.417551e-005 2.332926e-007
2.024493e+000 1.215987e-005 2.773148e-007
2.025997e+000 1.134999e-005 2.447780e-007
2.027501e+000 9.639342e-006 2.478837e-007
2.029005e+000 9.713317e-006 2.361202e-007
2.030508e+000 9.947320e-006 2.393413e-007
2.032010e+000 8.900900e-006 2.623241e-007
2.033512e+000 0.000000e+000 2.448185e-007
2.035014e+000 8.270349e-006 2.233462e-007
2.036515e+000 9.343178e-006 1.996406e-007
2.038015e+000 9.476939e-006 2.360687e-007
2.039516e+000 8.852858e-006 2.889417e-007
2.041015e+000 8.369051e-006 2.315228e-007
2.042515e+000 7.527408e-006 2.511032e-007
2.044013e+000 7.224161e-006 2.286482e-007
2.045512e+000 7.577628e-006 1.733864e-007
2.047009e+000 6.241167e-006 2.248750e-007
2.048507e+000 6.952362e-006 2.795097e-007
2.050004e+000 6.749503e-006 2.340455e-007
2.051500e+000 7.280947e-006 2.209188e-007
2.052996e+000 6.919529e-006 2.546790e-007
2.054491e+000 6.756707e-006 2.215316e-007
2.055986e+000 6.099039e-006 2.292256e-007
2.057481e+000 5.046395e-006 2.203697e-007
2.058975e+000 5.656369e-006 2.093056e-007
2.060469e+000 6.048173e-006 2.388247e-007
2.061962e+000 5.017275e-006 2.154803e-007
2.063454e+000 5.487957e-006 2.735373e-007
2.064947e+000 5.030814e-006 2.487692e-007
2.066438e+000 5.914959e-006 2.365984e-007
2.067930e+000 4.985214e-006 2.314743e-007
2.069420e+000 5.750152e-006 2.262473e-007
2.070911e+000 5.569503e-006 2.082759e-007
2.072400e+000 1.691462e-006 2.746510e-007
2.073890e+000 5.169563e-006 3.271432e-007
2.075379e+000 3.044839e-006 2.985648e-007
2.076867e+000 1.865053e-006 3.207917e-007
2.078355e+000 0.000000e+000 3.001309e-007
2.079843e+000 2.137297e-006 3.356388e-007
2.081329e+000 3.331373e-006 3.196062e-007
2.082816e+000 4.465247e-006 2.878310e-007
2.084302e+000 4.071089e-006 3.088495e-007
2.085788e+000 3.481804e-006 3.319560e-007
2.087273e+000 3.147368e-006 3.140013e-007
2.088757e+000 4.122320e-006 2.824441e-007
2.090242e+000 4.061259e-006 3.105686e-007
2.091725e+000 4.507624e-006 3.010400e-007
2.093208e+000 4.582920e-006 2.970423e-007
2.094691e+000 3.586173e-006 3.087808e-007
2.096174e+000 4.499506e-006 2.842776e-007
2.097655e+000 4.535743e-006 2.984190e-007
2.099137e+000 3.560276e-006 3.130996e-007
2.100618e+000 2.722081e-006 2.680093e-007
2.102098e+000 2.875911e-006 2.849266e-007
2.103578e+000 3.398544e-006 2.746438e-007
2.105057e+000 2.561948e-006 2.987930e-007
2.106536e+000 4.461346e-006 3.017489e-007
2.108015e+000 2.752761e-006 2.795837e-007
2.109493e+000 2.886748e-006 2.899657e-007
2.110970e+000 2.865676e-006 3.187499e-007
2.112447e+000 3.483221e-006 2.928372e-007
2.113924e+000 2.784931e-006 2.802603e-007
2.115400e+000 2.725303e-006 2.712869e-007
2.116876e+000 4.249742e-006 2.910401e-007
2.118351e+000 3.861129e-006 2.764148e-007
2.119826e+000 3.067794e-006 2.802659e-007
2.121300e+000 3.548069e-006 2.834008e-007
2.122774e+000 3.623077e-006 2.799374e-007
2.124247e+000 3.197228e-006 2.569659e-007
2.125720e+000 3.099113e-006 3.174651e-007
2.127192e+000 3.847583e-006 2.833922e-007
2.128664e+000 3.576167e-006 2.677970e-007
2.130135e+000 3.228206e-006 2.690171e-007
2.131606e+000 3.917685e-006 2.640160e-007
2.133077e+000 4.030569e-006 2.673302e-007
2.134546e+000 4.028232e-006 2.712753e-007
2.136016e+000 4.294293e-006 2.572053e-007
2.137485e+000 4.349289e-006 2.563415e-007
2.138953e+000 3.963801e-006 2.885057e-007
2.140422e+000 4.267718e-006 3.230824e-007
2.141889e+000 6.483960e-006 2.664044e-007
2.143356e+000 4.281921e-006 2.961395e-007
2.144823e+000 4.814394e-006 2.735382e-007
2.146289e+000 5.613569e-006 2.645711e-007
2.147755e+000 6.163754e-006 2.843278e-007
2.149220e+000 6.331874e-006 2.697175e-007
2.150685e+000 5.032106e-006 2.755618e-007
2.152149e+000 6.800895e-006 2.605065e-007
2.153613e+000 6.492389e-006 2.525844e-007
2.155076e+000 7.211773e-006 2.731093e-007
2.156539e+000 4.773418e-006 2.600618e-007
2.158001e+000 5.607007e-006 3.076520e-007
2.159463e+000 6.420656e-006 2.874620e-007
2.160924e+000 4.556463e-006 2.460771e-007
2.162385e+000 5.863128e-006 2.545699e-007
2.163846e+000 6.466657e-006 2.508675e-007
2.165306e+000 5.818603e-006 2.521546e-007
2.166765e+000 5.606958e-006 2.835042e-007
2.168224e+000 6.133892e-006 2.468400e-007
2.169683e+000 6.508867e-006 2.400821e-007
2.171141e+000 6.467392e-006 2.323762e-007
2.172598e+000 6.407067e-006 2.478699e-007
2.174055e+000 5.119006e-006 2.389331e-007
2.175512e+000 7.475989e-006 2.574720e-007
2.176968e+000 5.358574e-006 2.303160e-007
2.178424e+000 5.732740e-006 2.309587e-007
2.179879e+000 4.900271e-006 2.331269e-007
2.181334e+000 3.202241e-006 2.513131e-007
2.182788e+000 0.000000e+000 2.532813e-007
2.184242e+000 0.000000e+000 2.194281e-007
2.185695e+000 0.000000e+000 2.494815e-007
2.187148e+000 2.311782e-006 2.800388e-007
2.188600e+000 6.123775e-006 2.463575e-007
2.190052e+000 4.881297e-006 2.124060e-007
2.191503e+000 6.492299e-006 2.388251e-007
2.192954e+000 5.119717e-006 2.543854e-007
2.194405e+000 6.335212e-006 2.280213e-007
2.195854e+000 6.743859e-006 2.135884e-007
2.197304e+000 7.002278e-006 2.368251e-007
2.198753e+000 6.661620e-006 3.108740e-007
2.200201e+000 5.199207e-006 2.891287e-007
2.201649e+000 5.121599e-006 2.371745e-007
2.203097e+000 5.866076e-006 2.406978e-007
2.204544e+000 5.713507e-006 2.420115e-007
2.205991e+000 5.057248e-006 2.433153e-007
2.207437e+000 3.748910e-006 2.460275e-007
2.208882e+000 5.927892e-006 2.165908e-007
2.210327e+000 5.049019e-006 2.251201e-007
2.211772e+000 4.953182e-006 2.420728e-007
2.213216e+000 5.918272e-006 2.461993e-007
2.214660e+000 5.115239e-006 2.563953e-007
2.216103e+000 6.971565e-006 2.183929e-007
2.217546e+000 5.184052e-006 2.245130e-007
2.218988e+000 4.958414e-006 2.645937e-007
2.220430e+000 3.934903e-006 2.325670e-007
2.221871e+000 4.378014e-006 2.557066e-007
2.223312e+000 4.227341e-006 2.686842e-007
2.224753e+000 3.446775e-006 2.292164e-007
2.226192e+000 3.611624e-006 2.268368e-007
2.227632e+000 3.739276e-006 2.198091e-007
2.229071e+000 4.070308e-006 2.447505e-007
2.230509e+000 3.938701e-006 2.562265e-007
2.231947e+000 4.657394e-006 2.520571e-007
2.233385e+000 4.285484e-006 2.485142e-007
2.234822e+000 4.320136e-006 2.524657e-007
2.236258e+000 3.653564e-006 2.348600e-007
2.237694e+000 3.448763e-006 2.723015e-007
2.239130e+000 3.391643e-006 2.727812e-007
2.240565e+000 3.832009e-006 2.631348e-007
2.241999e+000 3.443309e-006 2.517997e-007
2.243433e+000 3.533516e-006 2.583087e-007
2.244867e+000 3.550054e-006 2.542110e-007
2.246300e+000 4.062954e-006 2.865846e-007
2.247733e+000 3.344209e-006 2.864344e-007
2.249165e+000 3.985239e-006 2.470779e-007
2.250597e+000 3.817956e-006 2.628116e-007
2.252028e+000 3.907693e-006 2.714957e-007
2.253459e+000 3.337227e-006 2.573638e-007
2.254889e+000 4.013583e-006 2.368353e-007
2.256319e+000 3.443659e-006 2.381253e-007
2.257748e+000 2.544787e-006 1.937518e-007
2.259177e+000 1.848131e-006 2.542085e-007
2.260605e+000 2.560439e-006 2.669169e-007
2.262033e+000 3.217172e-006 2.539453e-007
2.263461e+000 2.685681e-006 2.403036e-007
2.264888e+000 2.702556e-006 2.955722e-007
2.266314e+000 2.774168e-006 2.574635e-007
2.267740e+000 2.462631e-006 2.547316e-007
2.269165e+000 3.610002e-006 2.584880e-007
2.270590e+000 2.733446e-006 2.745568e-007
2.272015e+000 3.041677e-006 2.756223e-007
2.273439e+000 3.021915e-006 3.168805e-007
2.274862e+000 3.129540e-006 3.017299e-007
2.276285e+000 1.636714e-006 3.201924e-007
2.277708e+000 3.508051e-006 3.174377e-007
2.279130e+000 3.251924e-006 2.951816e-007
2.280552e+000 2.396847e-006 3.483295e-007
2.281973e+000 2.413778e-006 3.351373e-007
2.283393e+000 2.684645e-006 3.765857e-007
2.284814e+000 2.320679e-006 3.401546e-007
2.286233e+000 1.812113e-006 3.642301e-007
2.287653e+000 2.046652e-006 3.640460e-007
2.289071e+000 2.769732e-006 3.665543e-007
2.290489e+000 2.442649e-006 3.609681e-007
2.291907e+000 2.857365e-006 3.625949e-007
2.293325e+000 2.512494e-006 3.765607e-007
2.294741e+000 1.409180e-006 3.798246e-007
2.296158e+000 2.473858e-006 4.273150e-007
2.297573e+000 2.310184e-006 3.582487e-007
2.298989e+000 2.236871e-006 3.176143e-007
2.300404e+000 2.343935e-006 3.416248e-007
2.301818e+000 2.901425e-006 3.313170e-007
2.303232e+000 2.089426e-006 3.072666e-007
2.304645e+000 2.106389e-006 3.490974e-007
2.306058e+000 2.591190e-006 3.404696e-007
2.307471e+000 2.535948e-006 2.855101e-007
2.308883e+000 2.175160e-006 2.830946e-007
2.310294e+000 2.227986e-006 3.038601e-007
2.311705e+000 2.155049e-006 2.590046e-007
2.313116e+000 2.674531e-006 2.428214e-007
2.314526e+000 2.296450e-006 2.599901e-007
2.315935e+000 2.187726e-006 2.946558e-007
2.317344e+000 2.240420e-006 2.923211e-007
2.318753e+000 2.310977e-006 2.179399e-007
2.320161e+000 2.256126e-006 2.271986e-007
2.321569e+000 2.290814e-006 2.394454e-007
2.322976e+000 2.146587e-006 2.759661e-007
2.324383e+000 2.038261e-006 2.470994e-007
2.325789e+000 3.180994e-006 2.323198e-007
2.327194e+000 2.482824e-006 2.880168e-007
2.328600e+000 3.427842e-006 2.074371e-007
2.330004e+000 2.105670e-006 2.427136e-007
2.331409e+000 2.407859e-006 2.263134e-007
2.332812e+000 1.996663e-006 2.338034e-007
2.334216e+000 1.995695e-006 2.336902e-007
2.335619e+000 2.030350e-006 2.712752e-007
2.337021e+000 2.260788e-006 2.682064e-007
2.338423e+000 1.583567e-006 2.186427e-007
2.339824e+000 2.045196e-006 2.489804e-007
2.341225e+000 2.293073e-006 2.338036e-007
2.342625e+000 3.269167e-006 2.550075e-007
2.344025e+000 2.131042e-006 2.530223e-007
2.345425e+000 2.520524e-006 2.374811e-007
2.346824e+000 1.987067e-006 2.114164e-007
2.348222e+000 1.932917e-006 2.291632e-007
2.349620e+000 2.428286e-006 2.531596e-007
2.351017e+000 2.657439e-006 2.118557e-007
2.352414e+000 2.638465e-006 2.472762e-007
2.353811e+000 2.743406e-006 2.490526e-007
2.355207e+000 2.865940e-006 2.166694e-007
2.356603e+000 2.174958e-006 2.823683e-007
2.357998e+000 2.721828e-006 2.371244e-007
2.359392e+000 2.490884e-006 2.492074e-007
2.360786e+000 3.655101e-006 2.490896e-007
2.362180e+000 2.064951e-006 2.314665e-007
2.363573e+000 2.769611e-006 2.346960e-007
2.364966e+000 2.838837e-006 2.223377e-007
2.366358e+000 2.678884e-006 2.151312e-007
2.367750e+000 2.695241e-006 2.150301e-007
2.369141e+000 3.116562e-006 2.261749e-007
2.370532e+000 3.308695e-006 2.253828e-007
2.371922e+000 3.060870e-006 2.300349e-007
2.373312e+000 3.164938e-006 2.326011e-007
2.374701e+000 3.163461e-006 2.504021e-007
2.376090e+000 2.705255e-006 2.122579e-007
2.377478e+000 2.932255e-006 2.355708e-007
2.378866e+000 3.457400e-006 2.233782e-007
2.380253e+000 3.157579e-006 2.211975e-007
2.381640e+000 2.980775e-006 2.029704e-007
2.383026e+000 3.505170e-006 2.036320e-007
2.384412e+000 2.259789e-006 2.263791e-007
2.385798e+000 3.379363e-006 2.228615e-007
2.387183e+000 3.920353e-006 2.341551e-007
2.388567e+000 3.463715e-006 2.106498e-007
2.389951e+000 3.182354e-006 2.365389e-007
2.391334e+000 3.617827e-006 2.357834e-007
2.392717e+000 3.720983e-006 2.089037e-007
2.394100e+000 4.051044e-006 2.006162e-007
2.395482e+000 2.600557e-006 1.989994e-007
2.396863e+000 4.588147e-006 2.227283e-007
2.398244e+000 5.457925e-006 1.957350e-007
2.399625e+000 6.117757e-006 2.134670e-007
2.401005e+000 5.592324e-006 2.140798e-007
2.402385e+000 4.440480e-006 2.060410e-007
2.403764e+000 5.778704e-006 2.152971e-007
2.405142e+000 4.819201e-006 2.288328e-007
2.406521e+000 4.469219e-006 2.227001e-007
2.407898e+000 5.023423e-006 1.966559e-007
2.409275e+000 5.507631e-006 2.156085e-007
2.410652e+000 4.150567e-006 2.336409e-007
2.412028e+000 4.686812e-006 2.229748e-007
2.413404e+000 3.713060e-006 2.490301e-007
2.414779e+000 4.127621e-006 2.300802e-007
2.416154e+000 5.079201e-006 2.021609e-007
2.417528e+000 4.349173e-006 2.178018e-007
2.418902e+000 3.689080e-006 2.107023e-007
2.420275e+000 4.068291e-006 2.134352e-007
2.421648e+000 3.512741e-006 2.112240e-007
2.423021e+000 4.946777e-006 2.125420e-007
2.424392e+000 3.699785e-006 2.089003e-007
2.425764e+000 3.369799e-006 1.885137e-007
2.427135e+000 3.938322e-006 2.218801e-007
2.428505e+000 3.228681e-006 2.453913e-007
2.429875e+000 2.864831e-006 2.020000e-007
2.431244e+000 3.294823e-006 2.084371e-007
2.432613e+000 2.017402e-006 2.281002e-007
2.433982e+000 3.291911e-006 2.260367e-007
2.435350e+000 2.480765e-006 2.466608e-007
2.436717e+000 1.790875e-006 1.642678e-007
2.438084e+000 1.394202e-006 1.510380e-007
2.439451e+000 2.529107e-006 1.746098e-007
2.440817e+000 2.579590e-006 2.168492e-007
2.442183e+000 2.870685e-006 1.875178e-007
2.443548e+000 2.938157e-006 2.047496e-007
2.444912e+000 2.954048e-006 1.809466e-007
2.446276e+000 3.261768e-006 1.949819e-007
2.447640e+000 3.002950e-006 2.101627e-007
2.449003e+000 2.898729e-006 1.863211e-007
2.450366e+000 2.948903e-006 2.021340e-007
2.451728e+000 2.861936e-006 2.160936e-007
2.453090e+000 3.528761e-006 1.868652e-007
2.454451e+000 3.219028e-006 2.439579e-007
2.455812e+000 2.601492e-006 1.958910e-007
2.457172e+000 2.685907e-006 1.658652e-007
2.458532e+000 2.462444e-006 1.986876e-007
2.459891e+000 2.871613e-006 2.114279e-007
2.461250e+000 2.477409e-006 1.985165e-007
2.462608e+000 2.869143e-006 1.863015e-007
2.463966e+000 2.953266e-006 2.309309e-007
2.465323e+000 3.105572e-006 2.455022e-007
2.466680e+000 2.012641e-006 1.821112e-007
2.468036e+000 2.761935e-006 1.661729e-007
2.469392e+000 3.101590e-006 1.965345e-007
2.470748e+000 2.623303e-006 2.029887e-007
2.472103e+000 1.787854e-006 1.896066e-007
2.473457e+000 3.369947e-006 1.984848e-007
2.474811e+000 2.330740e-006 1.855867e-007
2.476164e+000 2.958954e-006 1.870603e-007
2.477517e+000 3.331662e-006 1.733491e-007
2.478870e+000 2.361760e-006 1.988755e-007
2.480222e+000 2.819327e-006 1.973351e-007
2.481573e+000 2.919998e-006 1.890449e-007
2.482925e+000 3.343006e-006 1.949655e-007
2.484275e+000 2.510439e-006 2.014177e-007
2.485625e+000 3.119774e-006 2.110917e-007
2.486975e+000 2.830345e-006 1.785601e-007
2.488324e+000 2.117633e-006 1.607170e-007
2.489672e+000 2.438491e-006 2.141996e-007
2.491021e+000 2.589813e-006 1.759093e-007
2.492368e+000 2.013457e-006 1.725489e-007
2.493715e+000 2.317047e-006 1.868074e-007
2.495062e+000 1.944156e-006 2.007441e-007
2.496408e+000 2.027840e-006 1.881756e-007
2.497754e+000 2.601312e-006 1.998646e-007
2.499099e+000 2.043040e-006 1.895295e-007
2.500444e+000 1.789028e-006 1.802037e-007
2.501788e+000 2.176312e-006 1.840369e-007
2.503132e+000 2.495822e-006 1.937487e-007
2.504475e+000 2.056517e-006 1.899653e-007
2.505818e+000 2.190466e-006 2.279391e-007
2.507161e+000 2.054822e-006 1.806189e-007
2.508503e+000 1.548900e-006 2.061965e-007
2.509844e+000 2.423369e-006 1.765035e-007
2.511185e+000 2.540129e-006 1.698943e-007
2.512525e+000 2.589533e-006 2.031783e-007
2.513865e+000 2.117842e-006 1.746767e-007
2.515205e+000 2.671422e-006 1.870924e-007
2.516544e+000 1.477919e-006 2.050035e-007
2.517882e+000 2.736394e-006 2.208076e-007
2.519220e+000 2.265415e-006 1.743918e-007
2.520557e+000 2.449008e-006 1.837503e-007
2.521894e+000 2.162971e-006 1.709927e-007
2.523231e+000 1.877166e-006 1.940158e-007
2.524567e+000 2.094203e-006 1.749130e-007
2.525903e+000 1.976128e-006 1.597547e-007
2.527238e+000 2.494272e-006 1.755714e-007
2.528572e+000 2.543465e-006 1.639524e-007
2.529906e+000 2.040643e-006 1.705783e-007
2.531240e+000 1.521506e-006 1.568461e-007
2.532573e+000 1.621173e-006 1.728819e-007
2.533906e+000 2.038183e-006 1.904824e-007
2.535238e+000 2.054065e-006 1.874539e-007
2.536570e+000 1.736075e-006 1.858857e-007
2.537901e+000 1.968990e-006 1.520199e-007
2.539232e+000 1.918164e-006 1.725360e-007
2.540562e+000 2.284206e-006 1.787984e-007
2.541892e+000 2.083299e-006 2.081632e-007
2.543221e+000 2.415665e-006 1.786560e-007
2.544550e+000 2.164908e-006 1.942073e-007
2.545878e+000 2.963083e-006 2.052322e-007
2.547206e+000 2.030072e-006 1.560964e-007
2.548533e+000 2.012635e-006 1.696275e-007
2.549860e+000 2.211361e-006 1.924688e-007
2.551187e+000 1.944564e-006 1.694935e-007
2.552513e+000 2.807707e-006 1.894248e-007
2.553838e+000 2.308388e-006 2.100652e-007
2.555163e+000 1.909067e-006 1.609486e-007
2.556488e+000 2.007881e-006 1.877403e-007
2.557811e+000 2.786708e-006 1.941523e-007
2.559135e+000 2.371090e-006 1.982805e-007
2.560458e+000 2.005522e-006 1.911472e-007
2.561781e+000 2.220124e-006 1.932154e-007
2.563103e+000 2.947969e-006 1.888315e-007
2.564424e+000 2.599161e-006 2.074356e-007
2.565745e+000 2.929124e-006 1.751352e-007
2.567066e+000 2.448259e-006 1.978170e-007
2.568386e+000 1.818945e-006 1.757787e-007
2.569706e+000 1.636416e-006 1.833205e-007
2.571025e+000 2.577596e-006 1.610468e-007
2.572343e+000 2.642666e-006 1.716462e-007
2.573662e+000 2.245399e-006 1.860614e-007
2.574979e+000 2.459083e-006 1.691148e-007
2.576297e+000 1.979707e-006 1.582390e-007
2.577613e+000 2.473681e-006 0.000000e+000
2.578930e+000 2.538670e-006 0.000000e+000
2.580245e+000 2.620089e-006 0.000000e+000
2.581561e+000 2.652029e-006 0.000000e+000
2.582875e+000 2.700412e-006 0.000000e+000
2.584190e+000 2.271429e-006 0.000000e+000
2.585504e+000 2.632535e-006 0.000000e+000
2.586817e+000 2.828897e-006 0.000000e+000
2.588130e+000 2.597648e-006 0.000000e+000
2.589442e+000 3.434822e-006 0.000000e+000
2.590754e+000 2.727100e-006 0.000000e+000
2.592066e+000 2.890287e-006 0.000000e+000
2.593377e+000 2.265389e-006 0.000000e+000
2.594687e+000 3.724991e-006 0.000000e+000
2.595997e+000 2.854200e-006 0.000000e+000
2.597307e+000 3.131877e-006 0.000000e+000
2.598616e+000 2.360316e-006 0.000000e+000
2.599924e+000 5.308711e-006 0.000000e+000
2.601232e+000 0.000000e+000 0.000000e+000
2.602540e+000 4.584329e-006 0.000000e+000
2.603847e+000 3.125995e-006 0.000000e+000
2.605154e+000 3.075743e-006 0.000000e+000
2.606460e+000 3.041884e-006 0.000000e+000
2.607765e+000 3.024400e-006 0.000000e+000
